time,absorbance
0.0016666666666666,16.23725891113277
0.0083333333333333,16.52002334594722
0.015,16.80183410644527
0.0216666666666667,17.080783843994098
0.0283333333333333,17.35210418701168
0.035,17.6153182983398
0.0416666666666667,17.8751945495605
0.0483333333333333,18.14317703247066
0.055,18.42832565307613
0.0616666666666667,18.73731613159175
0.0683333333333333,19.07444000244136
0.075,19.445896148681598
0.0816666666666667,19.858837127685497
0.0883333333333333,20.322322845458938
0.095,20.843505859374957
0.101666666666667,21.43192291259761
0.108333333333333,22.09854125976558
0.115,22.857189178466747
0.121666666666667,23.72360229492183
0.128333333333333,24.71494674682613
0.135,25.8502960205078
0.141666666666667,27.152538299560497
0.148333333333333,28.6493301391601
0.155,30.375480651855398
0.161666666666667,32.379150390625
0.168333333333333,34.7309112548828
0.175,37.546157836914
0.181666666666667,41.0189628601074
0.188333333333333,45.47119140625
0.195,51.398754119873004
0.201666666666667,59.474945068359304
0.208333333333333,70.45936584472649
0.215,84.9952697753906
0.221666666666667,103.3606529235839
0.228333333333333,125.2818107604983
0.235,149.88851547241228
0.241666666666667,175.82368850708028
0.248333333333333,201.46656036376928
0.255,225.2254486083983
0.261666666666667,245.8157539367673
0.268333333333333,262.4335289001463
0.275,274.7750282287593
0.281666666666667,282.9461097717283
0.288333333333333,287.3406410217283
0.295,288.5208129882813
0.301666666666667,287.1308326721193
0.308333333333333,283.83159637451126
0.315,279.2558670043943
0.321666666666667,273.96202087402327
0.328333333333333,268.3949470520023
0.335,262.8679275512693
0.341666666666667,257.5774192810063
0.348333333333333,252.6264190673823
0.355,248.04687500000028
0.361666666666667,243.8225746154783
0.368333333333333,239.90631103515628
0.375,236.2413406372073
0.381666666666667,232.7723503112793
0.388333333333333,229.4492721557613
0.395,226.2310981750483
0.401666666666667,223.0844497680663
0.408333333333333,219.98786926269528
0.415,216.92800521850629
0.421666666666667,213.89675140380828
0.428333333333333,210.8917236328123
0.435,207.9091072082523
0.441666666666667,204.94699478149428
0.448333333333333,202.00300216674827
0.455,199.07760620117227
0.461666666666667,196.1736679077153
0.468333333333333,193.2945251464843
0.475,190.44208526611328
0.481666666666667,187.61587142944327
0.488333333333333,184.81397628784129
0.495,182.03592300415028
0.501666666666667,179.28504943847628
0.508333333333333,176.5627861022953
0.515,173.86960983276327
0.521666666666667,171.20313644409129
0.528333333333333,168.5628890991213
0.535,165.9469604492183
0.541666666666667,163.3520126342773
0.548333333333333,160.7770919799803
0.555,158.2221984863283
0.561666666666667,155.6882858276363
0.568333333333333,153.1720161437983
0.575,150.6710052490233
0.581666666666667,148.1819152832033
0.588333333333333,145.70331573486328
0.595,143.2342529296873
0.601666666666667,140.7747268676753
0.608333333333333,138.3237838745113
0.615,135.8776092529293
0.621666666666667,133.43191146850629
0.628333333333333,130.9828758239743
0.635,128.5305023193363
0.641666666666667,126.0728836059573
0.648333333333333,123.6071586608883
0.655,121.1328506469723
0.661666666666667,118.6475753784183
0.668333333333333,116.1479949951173
0.675,113.6326789855957
0.681666666666667,111.0997200012207
0.688333333333333,108.5495948791503
0.695,105.9818267822265
0.701666666666667,103.3940315246582
0.708333333333333,100.7852554321289
0.715,98.1550216674804
0.721666666666667,95.5047607421875
0.728333333333333,92.836856842041
0.735,90.1556015014648
0.741666666666667,87.4652862548828
0.748333333333333,84.7687721252441
0.755,82.0679664611816
0.761666666666667,79.3676376342773
0.768333333333333,76.67207717895499
0.775,73.98843765258779
0.781666666666667,71.3210105895996
0.788333333333333,68.6683654785156
0.795,66.02144241332999
0.801666666666667,63.3783340454101
0.808333333333333,60.7476234436035
0.815,58.1464767456054
0.821666666666667,55.5877685546875
0.828333333333333,53.0905723571777
0.835,50.6792068481445
0.841666666666667,48.3679771423339
0.848333333333333,46.1568832397461
0.855,44.0378189086914
0.861666666666667,42.0069694519043
0.868333333333333,40.0638580322265
0.875,38.2070541381836
0.881666666666667,36.4346504211425
0.888333333333333,34.7476005554199
0.895,33.1463813781738
0.901666666666667,31.6300392150878
0.908333333333333,30.1990509033203
0.915,28.850555419921797
0.921666666666667,27.5826454162597
0.928333333333333,26.3915061950683
0.935,25.274276733398402
0.941666666666667,24.22666549682613
0.948333333333333,23.245334625244098
0.955,22.32742309570308
0.961666666666667,21.469116210937457
0.968333333333333,20.668029785156207
0.975,19.92082595825191
0.981666666666667,19.22321319580074
0.988333333333333,18.57233047485347
0.995,17.964839935302688
1.00166666666667,17.39883422851558
1.00833333333333,16.87097549438472
1.015,16.37744903564449
1.02166666666667,15.91587066650386
1.02833333333333,15.48385620117183
1.035,15.07949829101558
1.04166666666667,14.700412750244096
1.04833333333333,14.346599578857377
1.055,14.015674591064409
1.06166666666667,13.705253601074169
1.06833333333333,13.41342926025386
1.075,13.13877105712886
1.08166666666667,12.87984848022457
1.08833333333333,12.634754180908159
1.095,12.40396499633785
1.10166666666667,12.18605041503902
1.10833333333333,11.981010437011669
1.115,11.786937713622999
1.12166666666667,11.603832244872999
1.12833333333333,11.43026351928707
1.135,11.26623153686519
1.14166666666667,11.11030578613277
1.14833333333333,10.96153259277339
1.155,10.81991195678707
1.16166666666667,10.68449020385738
1.16833333333333,10.55479049682613
1.175,10.43081283569332
1.18166666666667,10.31303405761714
1.18833333333333,10.20288467407222
1.195,10.097503662109329
1.20166666666667,9.99593734741207
1.20833333333333,9.899616241455028
1.215,9.808540344238239
1.22166666666667,9.72223281860347
1.22833333333333,9.638786315917919
1.235,9.55963134765621
1.24166666666667,9.48524475097652
1.24833333333333,9.41562652587886
1.255,9.34934616088863
1.26166666666667,9.287834167480419
1.26833333333333,9.231090545654249
1.275,9.177684783935499
1.28166666666667,9.127616882324169
1.28833333333333,9.08136367797847
1.295,9.037494659423778
1.30166666666667,8.99696350097652
1.30833333333333,8.95929336547847
1.315,8.92639160156246
1.32166666666667,8.89921188354488
1.32833333333333,8.87632369995113
1.335,8.857250213622999
1.34166666666667,8.84246826171871
1.34833333333333,8.831024169921829
1.355,8.82291793823238
1.36166666666667,8.81814956665035
1.36833333333333,8.817195892333938
1.375,8.82053375244136
1.38166666666667,8.82863998413082
1.38833333333333,8.8415145874023
1.395,8.85868072509761
1.40166666666667,8.880138397216749
1.40833333333333,8.90588760375972
1.415,8.93592834472652
1.42166666666667,8.968830108642528
1.42833333333333,9.00459289550777
1.435,9.043693542480419
1.44166666666667,9.086132049560499
1.44833333333333,9.13047790527339
1.455,9.1767311096191
1.46166666666667,9.22393798828121
1.46833333333333,9.273529052734329
1.475,9.32455062866207
1.48166666666667,9.37652587890621
1.48833333333333,9.42993164062496
1.495,9.48476791381832
1.50166666666667,9.541988372802688
1.50833333333333,9.602069854736278
1.515,9.6650123596191
1.52166666666667,9.734630584716749
1.52833333333333,9.81187820434566
1.535,9.899616241455028
1.54166666666667,9.99784469604488
1.54833333333333,10.1075172424316
1.555,10.2295875549316
1.56166666666667,10.36310195922847
1.56833333333333,10.5047225952148
1.575,10.65254211425777
1.58166666666667,10.80322265624996
1.58833333333333,10.95342636108394
1.595,11.100292205810499
1.60166666666667,11.23952865600582
1.60833333333333,11.36922836303707
1.615,11.48796081542964
1.62166666666667,11.593818664550739
1.62833333333333,11.68584823608394
1.635,11.76357269287105
1.64166666666667,11.82699203491207
1.64833333333333,11.8780136108398
1.655,11.91568374633785
1.66166666666667,11.940479278564409
1.66833333333333,11.9538307189941
1.675,11.95716857910152
1.68166666666667,11.950492858886669
1.68833333333333,11.93475723266597
1.695,11.91282272338863
1.70166666666667,11.88564300537105
1.70833333333333,11.855602264404249
1.715,11.82413101196285
1.72166666666667,11.79313659667964
1.72833333333333,11.76595687866207
1.735,11.74402236938472
1.74166666666667,11.73162460327144
1.74833333333333,11.731147766113239
1.755,11.746406555175739
1.76166666666667,11.779308319091749
1.76833333333333,11.833667755126909
1.775,11.91186904907222
1.78166666666667,12.0148658752441
1.78833333333333,12.14361190795894
1.795,12.29953765869136
1.80166666666667,12.482166290283159
1.80833333333333,12.69006729125972
1.815,12.920379638671829
1.82166666666667,13.17071914672847
1.82833333333333,13.43774795532222
1.835,13.717174530029249
1.84166666666667,14.005661010742143
1.84833333333333,14.298439025878862
1.855,14.59121704101558
1.86166666666667,14.878749847412065
1.86833333333333,15.155315399169877
1.875,15.416145324706987
1.88166666666667,15.656471252441362
1.88833333333333,15.87247848510738
1.895,16.06130599975582
1.90166666666667,16.22152328491207
1.90833333333333,16.35217666625972
1.915,16.45231246948238
1.92166666666667,16.52145385742183
1.92833333333333,16.55912399291988
1.935,16.56532287597652
1.94166666666667,16.54100418090816
1.94833333333333,16.48807525634761
1.955,16.40796661376949
1.96166666666667,16.30401611328121
1.96833333333333,16.180038452148388
1.975,16.03937149047847
1.98166666666667,15.88535308837886
1.98833333333333,15.722274780273393
1.995,15.554904937744096
2.00166666666667,15.388011932373002
2.00833333333333,15.228271484374956
2.015,15.079975128173784
2.02166666666667,14.950275421142534
2.02833333333333,14.84584808349605
2.035,14.772415161132768
2.04166666666667,14.73760604858394
2.04833333333333,14.748573303222612
2.055,14.813423156738237
2.06166666666667,14.938354492187456
2.06833333333333,15.130996704101518
2.075,15.398025512695268
2.08166666666667,15.744209289550737
2.08833333333333,16.17336273193355
2.095,16.68834686279293
2.10166666666667,17.29154586791988
2.10833333333333,17.981052398681598
2.115,18.75448226928707
2.12166666666667,19.60468292236324
2.12833333333333,20.523071289062457
2.135,21.49868011474605
2.14166666666667,22.520065307617138
2.14833333333333,23.57387542724605
2.155,24.64342117309566
2.16166666666667,25.7143974304199
2.16833333333333,26.7705917358398
2.175,27.7972221374511
2.18166666666667,28.7771224975586
2.18833333333333,29.6950340270996
2.195,30.539035797119098
2.20166666666667,31.296253204345696
2.20833333333333,31.954765319824197
2.215,32.5069427490234
2.22166666666667,32.9456329345703
2.22833333333333,33.2684516906738
2.235,33.4720611572265
2.24166666666667,33.5555076599121
2.24833333333333,33.5216522216796
2.255,33.3747863769531
2.26166666666667,33.1206321716308
2.26833333333333,32.7639579772949
2.275,32.3128700256347
2.28166666666667,31.7764282226562
2.28833333333333,31.164169311523402
2.295,30.4861068725586
2.30166666666667,29.7503471374511
2.30833333333333,28.9664268493652
2.315,28.144359588622997
2.32166666666667,27.293205261230398
2.32833333333333,26.4220237731933
2.335,25.538444519042898
2.34166666666667,24.650096893310497
2.34833333333333,23.76270294189449
2.355,22.88341522216793
2.36166666666667,22.016048431396438
2.36833333333333,21.16584777832027
2.375,20.33615112304683
2.38166666666667,19.53029632568355
2.38833333333333,18.750667572021438
2.395,18.00060272216793
2.40166666666667,17.28153228759761
2.40833333333333,16.59440994262691
2.415,15.93875885009761
2.42166666666667,15.31600952148433
2.42833333333333,14.726638793945268
2.435,14.170646667480424
2.44166666666667,13.64660263061519
2.44833333333333,13.153553009033159
2.455,12.692451477050739
2.46166666666667,12.26186752319332
2.46833333333333,11.860370635986278
2.475,11.486530303955028
2.48166666666667,11.14034652709957
2.48833333333333,10.81943511962886
2.495,10.520458221435499
2.50166666666667,10.242938995361278
2.50833333333333,9.9854469299316
2.515,9.747028350830028
2.52166666666667,9.5276832580566
2.52833333333333,9.32550430297847
2.535,9.14001464843746
2.54166666666667,8.969783782958938
2.54833333333333,8.81385803222652
2.555,8.67033004760738
2.56166666666667,8.53776931762691
2.56833333333333,8.41522216796871
2.575,8.30268859863277
2.58166666666667,8.19969177246089
2.58833333333333,8.10432434082027
2.595,8.0170631408691
2.60166666666667,7.936477661132769
2.60833333333333,7.8630447387694895
2.615,7.79581069946285
2.62166666666667,7.7342987060546395
2.62833333333333,7.676601409912069
2.635,7.623672485351519
2.64166666666667,7.575511932372999
2.64833333333333,7.531166076660109
2.655,7.4901580810546395
2.66166666666667,7.4520111083983895
2.66833333333333,7.417201995849569
2.675,7.384777069091749
2.68166666666667,7.354259490966749
2.68833333333333,7.325649261474569
2.695,7.2994232177733895
2.70166666666667,7.2755813598632395
2.70833333333333,7.253170013427689
2.715,7.232666015624959
2.72166666666667,7.21359252929683
2.72833333333333,7.196426391601519
2.735,7.180690765380819
2.74166666666667,7.165431976318319
2.74833333333333,7.151603698730419
2.755,7.1392059326171395
2.76166666666667,7.128238677978469
2.76833333333333,7.11870193481441
2.775,7.110118865966749
2.78166666666667,7.102012634277299
2.78833333333333,7.094860076904249
2.795,7.089138031005819
2.80166666666667,7.084369659423779
2.80833333333333,7.079124450683549
2.815,7.074356079101519
2.82166666666667,7.071495056152299
2.82833333333333,7.0705413818358895
2.835,7.070064544677689
2.84166666666667,7.070064544677689
2.84833333333333,7.071971893310499
2.855,7.076740264892529
2.86166666666667,7.082939147949169
2.86833333333333,7.090568542480419
2.875,7.09915161132808
2.88166666666667,7.1086883544921395
2.88833333333333,7.117748260497999
2.895,7.12633132934566
2.90166666666667,7.134914398193319
2.90833333333333,7.144451141357379
2.915,7.1544647216796395
2.92166666666667,7.165431976318319
2.92833333333333,7.1773529052733895
2.935,7.190227508544879
2.94166666666667,7.203578948974569
2.94833333333333,7.216453552246049
2.955,7.22885131835933
2.96166666666667,7.241249084472609
2.96833333333333,7.253170013427689
2.975,7.264614105224569
2.98166666666667,7.27462768554683
2.98833333333333,7.282733917236279
2.995,7.28988647460933
3.00166666666667,7.296085357665969
3.00833333333333,7.2999000549316
3.015,7.302284240722609
3.02166666666667,7.304191589355419
3.02833333333333,7.305622100830029
3.035,7.30514526367183
3.04166666666667,7.304191589355419
3.04833333333333,7.302284240722609
3.055,7.300376892089799
3.06166666666667,7.29751586914058
3.06833333333333,7.29417800903316
3.075,7.2908401489257395
3.08166666666667,7.287025451660109
3.08833333333333,7.281303405761669
3.095,7.273197174072219
3.10166666666667,7.26366043090816
3.10833333333333,7.2526931762694895
3.115,7.241249084472609
3.12166666666667,7.22885131835933
3.12833333333333,7.2154998779296395
3.135,7.201194763183549
3.14166666666667,7.185935974121049
3.14833333333333,7.170677185058549
3.155,7.15494155883785
3.16166666666667,7.138729095458939
3.16833333333333,7.1229934692382395
3.175,7.108211517333939
3.18166666666667,7.094383239746049
3.18833333333333,7.081031799316359
3.195,7.068157196044879
3.20166666666667,7.0552825927733895
3.20833333333333,7.042884826660109
3.215,7.0323944091796395
3.22166666666667,7.022380828857379
3.22833333333333,7.013797760009719
3.235,7.006645202636669
3.24166666666667,7.000446319580029
3.24833333333333,6.995201110839799
3.255,6.990432739257769
3.26166666666667,6.987571716308549
3.26833333333333,6.9856643676757395
3.275,6.985187530517529
3.28166666666667,6.98709487915035
3.28833333333333,6.991386413574169
3.295,6.998538970947219
3.30166666666667,7.00759887695308
3.30833333333333,7.01951980590816
3.315,7.033348083496049
3.32166666666667,7.048606872558549
3.32833333333333,7.06529617309566
3.335,7.083415985107379
3.34166666666667,7.102489471435499
3.34833333333333,7.1229934692382395
3.355,7.146358489990189
3.36166666666667,7.173061370849569
3.36833333333333,7.202148437499959
3.375,7.23314285278316
3.38166666666667,7.267475128173779
3.38833333333333,7.303237915039019
3.395,7.340431213378859
3.40166666666667,7.379055023193319
3.40833333333333,7.420063018798779
3.415,7.463455200195269
3.42166666666667,7.509231567382769
3.42833333333333,7.5578689575194895
3.435,7.609844207763629
3.44166666666667,7.665157318115189
3.44833333333333,7.722854614257769
3.455,7.782936096191359
3.46166666666667,7.844448089599569
3.46833333333333,7.906913757324169
3.475,7.9698562622069895
3.48166666666667,8.03375244140621
3.48833333333333,8.09812545776363
3.495,8.162975311279249
3.50166666666667,8.22782516479488
3.50833333333333,8.29362869262691
3.515,8.358955383300739
3.52166666666667,8.42285156249996
3.52833333333333,8.48436355590816
3.535,8.54349136352535
3.54166666666667,8.597850799560499
3.54833333333333,8.64505767822261
3.555,8.681774139404249
3.56166666666667,8.7037086486816
3.56833333333333,8.70513916015621
3.575,8.67795944213863
3.58166666666667,8.6121559143066
3.58833333333333,8.495330810546829
3.595,8.313655853271438
3.60166666666667,8.05044174194332
3.60833333333333,7.689952850341749
3.615,7.21788406372066
3.62166666666667,6.6204071044921395
3.62833333333333,5.890369415283159
3.635,5.0334930419921395
3.64166666666667,4.073143005371
3.64833333333333,3.0508041381834996
3.655,2.0332336425781
3.66166666666667,1.1134147644042987
3.66833333333333,0.4043579101561985
3.675,0.011444091796798617
3.68166666666667,0.0
3.68833333333333,0.3762245178221999
3.695,1.0862350463866992
3.70166666666667,2.0318031311034996
3.70833333333333,3.0899047851561985
3.715,4.143714904785099
3.72166666666667,5.111694335937459
3.72833333333333,5.960941314697219
3.735,6.702423095703079
3.74166666666667,7.369995117187459
3.74833333333333,7.996559143066359
3.755,8.603572845458938
3.76166666666667,9.19961929321285
3.76833333333333,9.7870826721191
3.775,10.36262512207027
3.78166666666667,10.92290878295894
3.78833333333333,11.464118957519489
3.795,11.98768615722652
3.80166666666667,12.49837875366207
3.80833333333333,13.000965118408159
3.815,13.50164413452144
3.82166666666667,14.00375366210933
3.82833333333333,14.512062072753862
3.835,15.02752304077144
3.84166666666667,15.54775238037105
3.84833333333333,16.06178283691402
3.855,16.55197143554683
3.86166666666667,16.99924468994136
3.86833333333333,17.385005950927688
3.875,17.700195312499957
3.88166666666667,17.950057983398388
3.88833333333333,18.148899078369098
3.895,18.31960678100582
3.90166666666667,18.4850692749023
3.90833333333333,18.667221069335888
3.915,18.875122070312457
3.92166666666667,19.10781860351558
3.92833333333333,19.35720443725582
3.935,19.61612701416011
3.94166666666667,19.87600326538082
3.94833333333333,20.126342773437457
3.955,20.34854888916011
3.96166666666667,20.51734924316402
3.96833333333333,20.60127258300777
3.975,20.57266235351558
3.98166666666667,20.41673660278316
3.98833333333333,20.13540267944332
3.995,19.75393295288082
