time,absorbance
0.0016666666666666,14.67800140380858
0.0083333333333333,14.97507095336913
0.015,15.27261734008788
0.0216666666666667,15.567302703857411
0.0283333333333333,15.85245132446288
0.035,16.12329483032226
0.0416666666666667,16.38555526733398
0.0483333333333333,16.65019989013671
0.055,16.9229507446289
0.0616666666666667,17.20762252807616
0.0683333333333333,17.50707626342773
0.075,17.82608032226562
0.0816666666666667,18.16892623901366
0.0883333333333333,18.53990554809569
0.095,18.94474029541015
0.101666666666667,19.39201354980468
0.108333333333333,19.88744735717773
0.115,20.440578460693352
0.121666666666667,21.06237411499023
0.128333333333333,21.76570892333983
0.135,22.56536483764648
0.141666666666667,23.4761238098144
0.148333333333333,24.5184898376465
0.155,25.712490081787102
0.161666666666667,27.0833969116211
0.168333333333333,28.6612510681152
0.175,30.4880142211914
0.181666666666667,32.6194763183594
0.188333333333333,35.1414680480957
0.195,38.1937026977539
0.201666666666667,42.0145988464355
0.208333333333333,46.998977661132805
0.215,53.7395477294922
0.221666666666667,63.005447387695305
0.228333333333333,75.6049156188965
0.235,92.13542938232419
0.241666666666667,112.7223968505859
0.248333333333333,136.8632316589351
0.255,163.43450546264611
0.261666666666667,190.8478736877441
0.268333333333333,217.32854843139611
0.275,241.2390708923341
0.281666666666667,261.3577842712401
0.288333333333333,277.01139450073214
0.295,288.0496978759761
0.301666666666667,294.7320938110351
0.308333333333333,297.5869178771971
0.315,297.29223251342813
0.321666666666667,294.57998275756813
0.328333333333333,290.16351699829113
0.335,284.6913337707521
0.341666666666667,278.7084579467771
0.348333333333333,272.6263999938961
0.355,266.7174339294431
0.361666666666667,261.1360549926761
0.368333333333333,255.9547424316411
0.375,251.1830329895021
0.381666666666667,246.7823028564451
0.388333333333333,242.69008636474612
0.395,238.84010314941412
0.401666666666667,235.1760864257811
0.408333333333333,231.6522598266601
0.415,228.23286056518512
0.421666666666667,224.8907089233401
0.428333333333333,221.6043472290041
0.435,218.3594703674321
0.441666666666667,215.14987945556612
0.448333333333333,211.9731903076171
0.455,208.82844924926712
0.461666666666667,205.71517944335912
0.468333333333333,202.6319503784181
0.475,199.57637786865212
0.481666666666667,196.5494155883791
0.488333333333333,193.55249404907212
0.495,190.5894279479981
0.501666666666667,187.66212463378912
0.508333333333333,184.77201461792012
0.515,181.9171905517581
0.521666666666667,179.0962219238281
0.528333333333333,176.3057708740231
0.535,173.54583740234412
0.541666666666667,170.81642150878912
0.548333333333333,168.11800003051712
0.555,165.44866561889611
0.561666666666667,162.8046035766601
0.568333333333333,160.18390655517612
0.575,157.58466720581012
0.581666666666667,155.0068855285641
0.588333333333333,152.4505615234371
0.595,149.9137878417971
0.601666666666667,147.3937034606931
0.608333333333333,144.8864936828611
0.615,142.3888206481931
0.621666666666667,139.8997306823731
0.628333333333333,137.4182701110841
0.635,134.9439620971681
0.641666666666667,132.4748992919921
0.648333333333333,130.0072669982911
0.655,127.5372505187991
0.661666666666667,125.06246566772509
0.668333333333333,122.58100509643509
0.675,120.09191513061509
0.681666666666667,117.59376525878909
0.688333333333333,115.0860786437991
0.695,112.56456375122069
0.701666666666667,110.0268363952637
0.708333333333333,107.4709892272949
0.715,104.8955917358398
0.721666666666667,102.3006439208984
0.728333333333333,99.68662261962889
0.735,97.05543518066409
0.741666666666667,94.40469741821289
0.748333333333333,91.73631668090819
0.755,89.052677154541
0.761666666666667,86.35663986206049
0.768333333333333,83.65154266357419
0.775,80.9426307678223
0.781666666666667,78.2332420349121
0.788333333333333,75.5186080932617
0.795,72.7872848510742
0.801666666666667,70.0383186340332
0.808333333333333,67.2821998596191
0.815,64.5375251770019
0.821666666666667,61.8166923522949
0.828333333333333,59.138298034668004
0.835,56.528091430664105
0.841666666666667,54.0022850036621
0.848333333333333,51.563262939453104
0.855,49.2043495178223
0.861666666666667,46.9250679016113
0.868333333333333,44.7258949279785
0.875,42.6068305969238
0.881666666666667,40.5697822570801
0.888333333333333,38.6161804199219
0.895,36.7498397827148
0.901666666666667,34.970760345459
0.908333333333333,33.278942108154304
0.915,31.673431396484403
0.921666666666667,30.1523208618164
0.928333333333333,28.714656829834
0.935,27.3575782775879
0.941666666666667,26.0796546936035
0.948333333333333,24.8794555664062
0.955,23.7541198730469
0.961666666666667,22.698879241943352
0.968333333333333,21.71039581298827
0.975,20.78580856323241
0.981666666666667,19.92225646972655
0.988333333333333,19.11687850952148
0.995,18.36633682250976
1.00166666666667,17.66729354858398
1.00833333333333,17.01593399047851
1.015,16.40844345092773
1.02166666666667,15.8405303955078
1.02833333333333,15.31076431274413
1.035,14.816284179687491
1.04166666666667,14.355182647705071
1.04833333333333,13.925552368164054
1.055,13.524532318115225
1.06166666666667,13.14973831176757
1.06833333333333,12.79878616333007
1.075,12.471199035644522
1.08166666666667,12.164592742919911
1.08833333333333,11.87705993652343
1.095,11.60717010498046
1.10166666666667,11.35301589965819
1.10833333333333,11.112689971923821
1.115,10.88571548461913
1.12166666666667,10.67113876342772
1.12833333333333,10.46800613403319
1.135,10.27488708496093
1.14166666666667,10.09225845336913
1.14833333333333,9.919166564941401
1.155,9.754657745361321
1.16166666666667,9.59825515747069
1.16833333333333,9.45043563842772
1.175,9.311199188232411
1.18166666666667,9.178161621093741
1.18833333333333,9.051322937011712
1.195,8.930206298828121
1.20166666666667,8.815765380859371
1.20833333333333,8.70704650878905
1.215,8.60404968261718
1.22166666666667,8.50677490234374
1.22833333333333,8.41569900512694
1.235,8.32939147949218
1.24166666666667,8.24594497680663
1.24833333333333,8.16583633422851
1.255,8.0885887145996
1.26166666666667,8.01563262939452
1.26833333333333,7.94553756713866
1.275,7.88021087646483
1.28166666666667,7.81917572021483
1.28833333333333,7.76338577270507
1.295,7.71141052246093
1.30166666666667,7.66324996948241
1.30833333333333,7.618904113769521
1.315,7.57837295532226
1.32166666666667,7.541656494140621
1.32833333333333,7.508277893066401
1.335,7.47919082641601
1.34166666666667,7.45582580566405
1.34833333333333,7.439136505126941
1.355,7.42769241333007
1.36166666666667,7.422924041748041
1.36833333333333,7.42530822753905
1.375,7.43532180786132
1.38166666666667,7.45296478271483
1.38833333333333,7.4782371520996005
1.395,7.51256942749022
1.40166666666667,7.55643844604491
1.40833333333333,7.60984420776366
1.415,7.67421722412108
1.42166666666667,7.748603820800771
1.42833333333333,7.833957672119131
1.435,7.929801940917961
1.44166666666667,8.03613662719726
1.44833333333333,8.152484893798821
1.455,8.27932357788085
1.46166666666667,8.41760635375976
1.46833333333333,8.56924057006835
1.475,8.738517761230462
1.48166666666667,8.93163681030272
1.48833333333333,9.158134460449212
1.495,9.433269500732411
1.50166666666667,9.77849960327147
1.50833333333333,10.2248191833496
1.515,10.810852050781241
1.52166666666667,11.58714294433593
1.52833333333333,12.612342834472647
1.535,13.948917388916007
1.54166666666667,15.659809112548821
1.54833333333333,17.79651641845702
1.555,20.39289474487304
1.56166666666667,23.4570503234863
1.56833333333333,26.9703865051269
1.575,30.885219573974602
1.58166666666667,35.1338386535644
1.58833333333333,39.6318435668945
1.595,44.2876815795898
1.60166666666667,49.009799957275405
1.60833333333333,53.712844848632805
1.615,58.3233833312988
1.62166666666667,62.781810760498004
1.62833333333333,67.042350769043
1.635,71.070671081543
1.64166666666667,74.8457908630371
1.64833333333333,78.3553123474121
1.655,81.59399032592769
1.66166666666667,84.559440612793
1.66833333333333,87.2573852539062
1.675,89.6973609924316
1.68166666666667,91.8922424316406
1.68833333333333,93.8582420349121
1.695,95.611572265625
1.70166666666667,97.1693992614746
1.70833333333333,98.5474586486816
1.715,99.76243972778319
1.72166666666667,100.8296012878418
1.72833333333333,101.76372528076169
1.735,102.5805473327637
1.74166666666667,103.2958030700684
1.74833333333333,103.9257049560547
1.755,104.4878959655762
1.76166666666667,105.0000190734863
1.76833333333333,105.4835319519043
1.775,105.9589385986328
1.78166666666667,106.4496040344238
1.78833333333333,106.9788932800293
1.795,107.574462890625
1.80166666666667,108.2653999328613
1.80833333333333,109.0798377990723
1.815,110.04734039306639
1.82166666666667,111.1969947814941
1.82833333333333,112.5550270080566
1.835,114.1419410705571
1.84166666666667,115.9753799438481
1.84833333333333,118.0667877197261
1.855,120.4218864440921
1.86166666666667,123.03686141967809
1.86833333333333,125.8978843688961
1.875,128.9815902709961
1.88166666666667,132.2555541992191
1.88833333333333,135.6816291809081
1.895,139.21260833740212
1.90166666666667,142.7974700927731
1.90833333333333,146.37994766235312
1.915,149.9009132385251
1.92166666666667,153.3012390136721
1.92833333333333,156.5198898315431
1.935,159.5010757446291
1.94166666666667,162.19329833984412
1.94833333333333,164.55173492431612
1.955,166.5382385253911
1.96166666666667,168.12229156494112
1.96833333333333,169.2795753479001
1.975,169.9953079223631
1.98166666666667,170.26233673095712
1.98833333333333,170.08399963378912
1.995,169.4712638854981
2.00166666666667,168.4436798095701
2.00833333333333,167.0265197753911
2.015,165.25316238403312
2.02166666666667,163.1622314453121
2.02833333333333,160.7961654663081
2.035,158.20360183715812
2.04166666666667,155.4384231567381
2.04833333333333,152.5602340698241
2.055,149.6310234069821
2.06166666666667,146.71611785888712
2.06833333333333,143.8837051391601
2.075,141.2043571472171
2.08166666666667,138.7524604797361
2.08833333333333,136.6014480590821
2.095,134.8266601562501
2.10166666666667,133.5039138793941
2.10833333333333,132.7085494995121
2.115,132.5116157531741
2.12166666666667,132.9798698425291
2.12833333333333,134.1714859008791
2.135,136.1336708068851
2.14166666666667,138.8988494873051
2.14833333333333,142.4851417541501
2.155,146.89397811889611
2.16166666666667,152.1110534667971
2.16833333333333,158.09917449951212
2.175,164.8006439208981
2.18166666666667,172.13726043701212
2.18833333333333,180.01127243042012
2.195,188.3087158203121
2.20166666666667,196.9032287597661
2.20833333333333,205.6579589843751
2.215,214.43080902099612
2.22166666666667,223.0772972106931
2.22833333333333,231.4534187316891
2.235,239.4208908081051
2.24166666666667,246.8495368957521
2.24833333333333,253.6220550537111
2.255,259.6373558044431
2.26166666666667,264.8096084594731
2.26833333333333,269.0720558166501
2.275,272.3746299743651
2.28166666666667,274.6829986572261
2.28833333333333,275.9804725646971
2.295,276.2684822082521
2.30166666666667,275.56371688842813
2.30833333333333,273.8957405090331
2.315,271.3079452514651
2.32166666666667,267.8513526916501
2.32833333333333,263.5884284973141
2.335,258.5868835449221
2.34166666666667,252.9196739196781
2.34833333333333,246.66118621826212
2.355,239.88676071167012
2.36166666666667,232.6722145080571
2.36833333333333,225.0905036926271
2.375,217.2098159790041
2.38166666666667,209.0964317321781
2.38833333333333,200.8137702941891
2.395,192.42715835571312
2.40166666666667,183.99572372436512
2.40833333333333,175.5762100219731
2.415,167.2182083129881
2.42166666666667,158.9684486389161
2.42833333333333,150.86650848388712
2.435,142.94481277465812
2.44166666666667,135.2319717407231
2.44833333333333,127.75182723999009
2.455,120.52536010742209
2.46166666666667,113.5711669921871
2.46833333333333,106.90164566040039
2.475,100.5239486694336
2.48166666666667,94.4423675537109
2.48833333333333,88.66071701049799
2.495,83.1775665283203
2.50166666666667,77.9895782470703
2.50833333333333,73.0924606323242
2.515,68.48239898681639
2.52166666666667,64.150333404541
2.52833333333333,60.0872039794922
2.535,56.2829971313476
2.54166666666667,52.7276992797851
2.54833333333333,49.4112968444824
2.555,46.3228225708008
2.56166666666667,43.4517860412598
2.56833333333333,40.7857894897461
2.575,38.3114814758301
2.58166666666667,36.017894744873
2.58833333333333,33.8945388793945
2.595,31.930446624755902
2.60166666666667,30.115127563476598
2.60833333333333,28.4380912780762
2.615,26.892185211181598
2.62166666666667,25.4669189453125
2.62833333333333,24.1537094116211
2.635,22.94445037841796
2.64166666666667,21.83103561401366
2.64833333333333,20.806789398193352
2.655,19.86360549926757
2.66166666666667,18.99623870849608
2.66833333333333,18.19849014282226
2.675,17.46463775634765
2.68166666666667,16.78943634033202
2.68833333333333,16.168117523193352
2.695,15.595436096191401
2.70166666666667,15.06710052490233
2.70833333333333,14.57929611206054
2.715,14.128208160400382
2.72166666666667,13.711929321289054
2.72833333333333,13.328552246093741
2.735,12.974739074707022
2.74166666666667,12.647151947021475
2.74833333333333,12.344360351562491
2.755,12.06445693969726
2.76166666666667,11.806011199951161
2.76833333333333,11.5680694580078
2.775,11.34777069091796
2.78166666666667,11.14368438720702
2.78833333333333,10.95438003540038
2.795,10.77795028686522
2.80166666666667,10.613441467285151
2.80833333333333,10.45894622802733
2.815,10.31541824340819
2.82166666666667,10.18333435058593
2.82833333333333,10.06078720092772
2.835,9.94634628295897
2.84166666666667,9.83953475952147
2.84833333333333,9.74035263061522
2.855,9.647846221923821
2.86166666666667,9.56153869628905
2.86833333333333,9.48143005371093
2.875,9.40847396850585
2.88166666666667,9.342670440673821
2.88833333333333,9.28306579589843
2.895,9.22870635986327
2.90166666666667,9.179115295410151
2.90833333333333,9.13381576538085
2.915,9.09185409545897
2.92166666666667,9.052276611328121
2.92833333333333,9.01508331298827
2.935,8.980751037597651
2.94166666666667,8.94880294799804
2.94833333333333,8.919715881347651
2.955,8.892536163330071
2.96166666666667,8.8672637939453
2.96833333333333,8.84294509887694
2.975,8.81910324096679
2.98166666666667,8.79573822021483
2.98833333333333,8.77237319946288
2.995,8.74948501586913
3.00166666666667,8.72707366943358
3.00833333333333,8.70513916015624
3.015,8.683204650878901
3.02166666666667,8.660316467285151
3.02833333333333,8.63504409790038
3.035,8.6078643798828
3.04166666666667,8.579730987548821
3.04833333333333,8.55064392089843
3.055,8.52012634277343
3.06166666666667,8.488178253173821
3.06833333333333,8.456230163574212
3.075,8.423805236816401
3.08166666666667,8.39042663574218
3.08833333333333,8.35657119750976
3.095,8.32223892211913
3.10166666666667,8.28790664672851
3.10833333333333,8.25357437133788
3.115,8.21924209594726
3.12166666666667,8.18490982055663
3.12833333333333,8.15057754516601
3.135,8.11672210693358
3.14166666666667,8.083343505859371
3.14833333333333,8.049964904785151
3.155,8.01563262939452
3.16166666666667,7.980823516845691
3.16833333333333,7.94553756713866
3.175,7.910251617431631
3.18166666666667,7.87591934204101
3.18833333333333,7.84301757812499
3.195,7.81154632568358
3.20166666666667,7.78198242187499
3.20833333333333,7.75384902954101
3.215,7.725715637207021
3.22166666666667,7.699012756347651
3.22833333333333,7.67421722412108
3.235,7.650852203369131
3.24166666666667,7.630348205566401
3.24833333333333,7.612705230712881
3.255,7.598400115966791
3.26166666666667,7.58695602416991
3.26833333333333,7.5774192810058505
3.275,7.57169723510741
3.28166666666667,7.569313049316401
3.28833333333333,7.5697898864746005
3.295,7.574558258056631
3.30166666666667,7.583141326904291
3.30833333333333,7.597446441650381
3.315,7.61651992797851
3.32166666666667,7.64131546020507
3.32833333333333,7.670402526855461
3.335,7.702827453613271
3.34166666666667,7.73954391479491
3.34833333333333,7.77959823608397
3.355,7.82346725463866
3.36166666666667,7.86924362182616
3.36833333333333,7.916450500488271
3.375,7.9665184020996005
3.38166666666667,8.01849365234374
3.38833333333333,8.07189941406249
3.395,8.126258850097651
3.40166666666667,8.181571960449212
3.40833333333333,8.23736190795897
3.415,8.29219818115233
3.42166666666667,8.34655761718749
3.42833333333333,8.39900970458983
3.435,8.45098495483397
3.44166666666667,8.502006530761712
3.44833333333333,8.55302810668944
3.455,8.60500335693358
3.46166666666667,8.656024932861321
3.46833333333333,8.706092834472651
3.475,8.754253387451161
3.48166666666667,8.800029754638661
3.48833333333333,8.84485244750976
3.495,8.88729095458983
3.50166666666667,8.92877578735351
3.50833333333333,8.96978378295897
3.515,9.01174545288085
3.52166666666667,9.05323028564452
3.52833333333333,9.09328460693358
3.535,9.13190841674804
3.54166666666667,9.166240692138661
3.54833333333333,9.19485092163085
3.555,9.21440124511718
3.56166666666667,9.21916961669921
3.56833333333333,9.20343399047851
3.575,9.159088134765621
3.58166666666667,9.075641632080071
3.58833333333333,8.94021987915038
3.595,8.738994598388661
3.60166666666667,8.45813751220702
3.60833333333333,8.082389831542962
3.615,7.595062255859371
3.62166666666667,6.979465484619131
3.62833333333333,6.224155426025381
3.635,5.33485412597655
3.64166666666667,4.33588027954101
3.64833333333333,3.273010253906241
3.655,2.2130012512207013
3.66166666666667,1.2507438659668004
3.66833333333333,0.49829483032230115
3.675,0.05960464477540128
3.68166666666667,0.0
3.68833333333333,0.32663345336909977
3.695,0.9889602661133008
3.70166666666667,1.8892288208008008
3.70833333333333,2.9087066650391
3.715,3.932476043701161
3.72166666666667,4.878520965576161
3.72833333333333,5.71012496948241
3.735,6.43825531005858
3.74166666666667,7.095813751220691
3.74833333333333,7.71570205688476
3.755,8.318901062011712
3.76166666666667,8.913993835449212
3.76833333333333,9.502410888671871
3.775,10.08033752441405
3.78166666666667,10.64348220825194
3.78833333333333,11.188983917236321
3.795,11.71779632568358
3.80166666666667,12.23421096801757
3.80833333333333,12.741565704345694
3.815,13.244152069091788
3.82166666666667,13.745784759521475
3.82833333333333,14.25075531005858
3.835,14.76240158081054
3.84166666666667,15.27929306030273
3.84833333333333,15.793800354003901
3.855,16.28875732421874
3.86166666666667,16.74127578735351
3.86833333333333,17.129898071289052
3.875,17.43984222412108
3.88166666666667,17.67253875732421
3.88833333333333,17.84181594848632
3.895,17.976284027099602
3.90166666666667,18.10646057128905
3.90833333333333,18.25618743896483
3.915,18.43595504760741
3.92166666666667,18.64528656005858
3.92833333333333,18.87464523315429
3.935,19.11544799804687
3.94166666666667,19.35958862304687
3.94833333333333,19.59705352783202
3.955,19.81163024902343
3.96166666666667,19.97756958007812
3.96833333333333,20.06483078002929
3.975,20.04337310791015
3.98166666666667,19.89412307739257
3.98833333333333,19.61803436279296
3.995,19.23561096191405
