time,absorbance
0.0016666666666666,40.734767913818374
0.0083333333333333,42.14763641357423
0.015,43.5605049133301
0.0216666666666667,44.9690818786621
0.0283333333333333,46.3709831237793
0.035,47.762393951416
0.0416666666666667,49.1390228271484
0.0483333333333333,50.4937171936035
0.055,51.8155097961426
0.0616666666666667,53.0900955200195
0.0683333333333333,54.3031692504883
0.075,55.4428100585938
0.0816666666666667,56.5004348754883
0.0883333333333333,57.4684143066406
0.095,58.3381652832031
0.101666666666667,59.1020584106445
0.108333333333333,59.7553253173828
0.115,60.2936744689941
0.121666666666667,60.7142448425293
0.128333333333333,61.018466949462905
0.135,61.210155487060604
0.141666666666667,61.2969398498535
0.148333333333333,61.2926483154297
0.155,61.2163543701172
0.161666666666667,61.0952377319336
0.168333333333333,60.964107513427706
0.175,60.8639717102051
0.181666666666667,60.843944549560604
0.188333333333333,60.9622001647949
0.195,61.2921714782715
0.201666666666667,61.9311332702637
0.208333333333333,63.0178451538086
0.215,64.75830078125
0.221666666666667,67.4543380737305
0.228333333333333,71.5141296386719
0.235,77.4240493774414
0.241666666666667,85.65568923950201
0.248333333333333,96.529483795166
0.255,110.0773811340332
0.261666666666667,125.96702575683591
0.268333333333333,143.5170173645021
0.275,161.79037094116208
0.281666666666667,179.7494888305661
0.288333333333333,196.4273452758791
0.295,211.0705375671391
0.301666666666667,223.2084274291991
0.308333333333333,232.6450347900391
0.315,239.4042015075681
0.321666666666667,243.6685562133791
0.328333333333333,245.7299232482911
0.335,245.9487915039061
0.341666666666667,244.7214126586911
0.348333333333333,242.4468994140621
0.355,239.4948005676271
0.361666666666667,236.1769676208501
0.368333333333333,232.7370643615721
0.375,229.3467521667481
0.381666666666667,226.1147499084471
0.388333333333333,223.0906486511231
0.395,220.28017044067408
0.401666666666667,217.6628112792971
0.408333333333333,215.1994705200191
0.415,212.8486633300781
0.421666666666667,210.5703353881841
0.428333333333333,208.33396911621108
0.435,206.1161994934081
0.441666666666667,203.8979530334471
0.448333333333333,201.6658782958981
0.455,199.41043853759808
0.461666666666667,197.1249580383301
0.468333333333333,194.8056221008301
0.475,192.45195388793908
0.481666666666667,190.0682449340821
0.488333333333333,187.6587867736821
0.495,185.2259635925291
0.501666666666667,182.7707290649411
0.508333333333333,180.2926063537601
0.515,177.79493331909208
0.521666666666667,175.2820014953611
0.528333333333333,172.7585792541501
0.535,170.22705078125009
0.541666666666667,167.6898002624511
0.548333333333333,165.14730453491208
0.555,162.5986099243161
0.561666666666667,160.0446701049801
0.568333333333333,157.4869155883791
0.575,154.9282073974611
0.581666666666667,152.3709297180171
0.588333333333333,149.8126983642581
0.595,147.2535133361821
0.601666666666667,144.6914672851561
0.608333333333333,142.1270370483401
0.615,139.5597457885741
0.621666666666667,136.9915008544921
0.628333333333333,134.4223022460941
0.635,131.8502426147461
0.641666666666667,129.2729377746582
0.648333333333333,126.6884803771973
0.655,124.09734725952151
0.661666666666667,121.49953842163089
0.668333333333333,118.89362335205081
0.675,116.28007888793951
0.681666666666667,113.65556716918951
0.688333333333333,111.0177040100098
0.695,108.36505889892581
0.701666666666667,105.6985855102539
0.708333333333333,103.0192375183106
0.715,100.3270149230957
0.721666666666667,97.6223945617676
0.728333333333333,94.90394592285159
0.735,92.1721458435059
0.741666666666667,89.4274711608887
0.748333333333333,86.672306060791
0.755,83.90951156616211
0.761666666666667,81.1452865600586
0.768333333333333,78.3824920654297
0.775,75.6244659423828
0.781666666666667,72.8754997253418
0.788333333333333,70.134162902832
0.795,67.39091873168951
0.801666666666667,64.6414756774902
0.808333333333333,61.8929862976074
0.815,59.1621398925781
0.821666666666667,56.4637184143066
0.828333333333333,53.8139343261719
0.835,51.2371063232422
0.841666666666667,48.7523078918457
0.848333333333333,46.363353729248104
0.855,44.0630912780762
0.861666666666667,41.847229003906264
0.868333333333333,39.71385955810548
0.875,37.66441345214844
0.881666666666667,35.69889068603516
0.888333333333333,33.82015228271485
0.895,32.02962875366212
0.901666666666667,30.32875061035157
0.908333333333333,28.7165641784668
0.915,27.1902084350586
0.921666666666667,25.74872970581055
0.928333333333333,24.38926696777344
0.935,23.110389709472663
0.941666666666667,21.908760070800803
0.948333333333333,20.7810401916504
0.955,19.7238922119141
0.961666666666667,18.735408782959
0.968333333333333,17.811775207519503
0.975,16.948699951171903
0.981666666666667,16.143798828125
0.988333333333333,15.393257141113303
0.995,14.692783355712901
1.00166666666667,14.039516448974602
1.00833333333333,13.4310722351074
1.015,12.865066528320302
1.02166666666667,12.339115142822301
1.02833333333333,11.8513107299805
1.035,11.395931243896502
1.04166666666667,10.9710693359375
1.04833333333333,10.5733871459961
1.055,10.201930999755902
1.06166666666667,9.854316711425803
1.06833333333333,9.5286369323731
1.075,9.225368499755902
1.08166666666667,8.9421272277832
1.08833333333333,8.676528930664102
1.095,8.4271430969238
1.10166666666667,8.192062377929702
1.10833333333333,7.9712867736816015
1.115,7.763385772705099
1.12166666666667,7.568359375
1.12833333333333,7.384300231933601
1.135,7.210731506347702
1.14166666666667,7.047176361084002
1.14833333333333,6.893634796142599
1.155,6.749153137206999
1.16166666666667,6.6132545471191015
1.16833333333333,6.4854621887207
1.175,6.364822387695302
1.18166666666667,6.2518119812012
1.18833333333333,6.1454772949219
1.195,6.045341491699201
1.20166666666667,5.9514045715332
1.20833333333333,5.865097045898402
1.215,5.784511566162102
1.22166666666667,5.709648132324201
1.22833333333333,5.6414604187012
1.235,5.5809020996094
1.24166666666667,5.526542663574201
1.24833333333333,5.479812622070302
1.255,5.441188812255902
1.26166666666667,5.410671234130902
1.26833333333333,5.387783050537102
1.275,5.37109375
1.28166666666667,5.361557006835902
1.28833333333333,5.3596496582031
1.295,5.365371704101602
1.30166666666667,5.3787231445313
1.30833333333333,5.400180816650401
1.315,5.430698394775401
1.32166666666667,5.471706390380902
1.32833333333333,5.523681640625
1.335,5.586624145507802
1.34166666666667,5.661964416503899
1.34833333333333,5.750179290771502
1.355,5.853176116943402
1.36166666666667,5.9738159179688
1.36833333333333,6.111621856689499
1.375,6.269454956054702
1.38166666666667,6.448268890380902
1.38833333333333,6.650447845459002
1.395,6.875991821289102
1.40166666666667,7.127285003662102
1.40833333333333,7.405281066894499
1.415,7.7118873596191015
1.42166666666667,8.050441741943402
1.42833333333333,8.424282073974602
1.435,8.837699890136701
1.44166666666667,9.2997550964356
1.44833333333333,9.823799133300803
1.455,10.428428649902301
1.46166666666667,11.1398696899414
1.46833333333333,11.991500854492202
1.475,13.020992279052702
1.48166666666667,14.273643493652301
1.48833333333333,15.798091888427702
1.495,17.643928527832003
1.50166666666667,19.857406616210902
1.50833333333333,22.4785804748535
1.515,25.53749084472657
1.52166666666667,29.05035018920899
1.52833333333333,33.011913299560554
1.535,37.39404678344727
1.54166666666667,42.14286804199219
1.54833333333333,47.18017578125
1.555,52.4063110351563
1.56166666666667,57.706356048584
1.56833333333333,62.9587173461914
1.575,68.0427551269531
1.58166666666667,72.8497505187988
1.58833333333333,77.2881507873535
1.595,81.2854766845703
1.60166666666667,84.7926139831543
1.60833333333333,87.7819061279297
1.615,90.2466773986816
1.62166666666667,92.1969413757324
1.62833333333333,93.6532020568848
1.635,94.6455001831055
1.64166666666667,95.2110290527344
1.64833333333333,95.3888893127441
1.655,95.2210426330566
1.66166666666667,94.7527885437012
1.66833333333333,94.02751922607419
1.675,93.0895805358887
1.68166666666667,91.9809341430664
1.68833333333333,90.74258804321289
1.695,89.41078186035159
1.70166666666667,88.0203247070313
1.70833333333333,86.6045951843262
1.715,85.1950645446777
1.72166666666667,83.82225036621091
1.72833333333333,82.5142860412598
1.735,81.301212310791
1.74166666666667,80.2102088928223
1.74833333333333,79.26797866821289
1.755,78.5021781921387
1.76166666666667,77.9376029968262
1.76833333333333,77.59904861450201
1.775,77.5084495544434
1.78166666666667,77.6829719543457
1.78833333333333,78.13882827758789
1.795,78.8869857788086
1.80166666666667,79.930305480957
1.80833333333333,81.265926361084
1.815,82.8847885131836
1.82166666666667,84.7678184509277
1.82833333333333,86.8897438049316
1.835,89.2176628112793
1.84166666666667,91.7139053344727
1.84833333333333,94.3341255187988
1.855,97.0296859741211
1.86166666666667,99.74956512451169
1.86833333333333,102.442741394043
1.875,105.0577163696289
1.88166666666667,107.54537582397461
1.88833333333333,109.8594665527344
1.895,111.95945739746091
1.90166666666667,113.80910873413089
1.90833333333333,115.3788566589356
1.915,116.6434288024902
1.92166666666667,117.5851821899414
1.92833333333333,118.19314956665039
1.935,118.46256256103521
1.94166666666667,118.3972358703613
1.94833333333333,118.00479888916021
1.955,117.30051040649411
1.96166666666667,116.302490234375
1.96833333333333,115.03410339355469
1.975,113.52300643920901
1.98166666666667,111.8016242980957
1.98833333333333,109.9038124084473
1.995,107.8686714172363
2.00166666666667,105.7381629943848
2.00833333333333,103.5566329956055
2.015,101.37033462524411
2.02166666666667,99.2279052734375
2.02833333333333,97.1827507019043
2.035,95.2887535095215
2.04166666666667,93.60313415527341
2.04833333333333,92.1835899353027
2.055,91.0906791687012
2.06166666666667,90.3816223144531
2.06833333333333,90.113639831543
2.075,90.3382301330566
2.08166666666667,91.1011695861816
2.08833333333333,92.4420356750488
2.095,94.3903923034668
2.10166666666667,96.9657897949219
2.10833333333333,100.1729965209961
2.115,104.00199890136719
2.12166666666667,108.42704772949219
2.12833333333333,113.4042739868164
2.135,118.87550354003909
2.14166666666667,124.7668266296387
2.14833333333333,130.9943199157715
2.155,137.4635696411131
2.16166666666667,144.0706253051761
2.16833333333333,150.7048606872561
2.175,157.2523117065431
2.18166666666667,163.6023521423341
2.18833333333333,169.6496009826661
2.195,175.2948760986331
2.20166666666667,180.4513931274411
2.20833333333333,185.0428581237791
2.215,189.0058517456051
2.22166666666667,192.2869682312011
2.22833333333333,194.8471069335941
2.235,196.65956497192408
2.24166666666667,197.7119445800781
2.24833333333333,198.0047225952151
2.255,197.5517272949221
2.26166666666667,196.3772773742671
2.26833333333333,194.51427459716808
2.275,192.0003890991211
2.28166666666667,188.8804435729981
2.28833333333333,185.2049827575681
2.295,181.03027343750009
2.30166666666667,176.41305923461908
2.30833333333333,171.4110374450681
2.315,166.0823822021481
2.32166666666667,160.4852676391601
2.32833333333333,154.6769142150881
2.335,148.7107276916501
2.34166666666667,142.6391601562501
2.34833333333333,136.5103721618651
2.355,130.3672790527344
2.36166666666667,124.2485046386719
2.36833333333333,118.1864738464356
2.375,112.2097969055176
2.38166666666667,106.3432693481445
2.38833333333333,100.61025619506839
2.395,95.0336456298828
2.40166666666667,89.632511138916
2.40833333333333,84.4216346740723
2.415,79.4129371643066
2.42166666666667,74.61261749267581
2.42833333333333,70.0268745422363
2.435,65.6576156616211
2.44166666666667,61.5062713623047
2.44833333333333,57.5723648071289
2.455,53.8544654846191
2.46166666666667,50.3497123718262
2.46833333333333,47.052383422851605
2.475,43.9562797546387
2.48166666666667,41.053771972656264
2.48833333333333,38.33866119384766
2.495,35.80379486083985
2.50166666666667,33.44106674194337
2.50833333333333,31.24141693115235
2.515,29.19626235961915
2.52166666666667,27.2970199584961
2.52833333333333,25.53510665893555
2.535,23.903846740722663
2.54166666666667,22.3941802978516
2.54833333333333,20.9989547729492
2.555,19.710540771484403
2.56166666666667,18.521308898925803
2.56833333333333,17.4236297607422
2.575,16.411304473877
2.58166666666667,15.479087829589801
2.58833333333333,14.6212577819824
2.595,13.833045959472702
2.60166666666667,13.1077766418457
2.60833333333333,12.441158294677702
2.615,11.827468872070302
2.62166666666667,11.263847351074201
2.62833333333333,10.745048522949201
2.635,10.2682113647461
2.64166666666667,9.829521179199201
2.64833333333333,9.4265937805176
2.655,9.056568145752
2.66166666666667,8.715629577636701
2.66833333333333,8.400917053222702
2.675,8.110523223877
2.68166666666667,7.843017578125
2.68833333333333,7.5950622558594
2.695,7.3661804199219
2.70166666666667,7.154941558837901
2.70833333333333,6.960868835449201
2.715,6.783008575439499
2.72166666666667,6.618976593017599
2.72833333333333,6.4659118652344
2.735,6.323814392089801
2.74166666666667,6.1912536621094
2.74833333333333,6.066799163818402
2.755,5.948543548584002
2.76166666666667,5.836963653564499
2.76833333333333,5.731582641601602
2.775,5.632400512695302
2.78166666666667,5.536556243896502
2.78833333333333,5.444526672363303
2.795,5.357742309570302
2.80166666666667,5.2757263183594
2.80833333333333,5.196571350097702
2.815,5.120277404785202
2.82166666666667,5.045413970947301
2.82833333333333,4.972457885742202
2.835,4.900932312011701
2.84166666666667,4.830360412597702
2.84833333333333,4.762172698974602
2.855,4.6958923339844
2.86166666666667,4.632949829101602
2.86833333333333,4.571914672851602
2.875,4.5123100280762
2.88166666666667,4.4560432434082
2.88833333333333,4.403114318847702
2.895,4.353523254394499
2.90166666666667,4.3072700500488
2.90833333333333,4.2643547058106
2.915,4.224777221679702
2.92166666666667,4.187583923339801
2.92833333333333,4.151344299316399
2.935,4.117488861084002
2.94166666666667,4.086017608642599
2.94833333333333,4.056453704834002
2.955,4.029273986816399
2.96166666666667,4.0040016174316015
2.96833333333333,3.9806365966797017
2.975,3.958702087402301
2.98166666666667,3.9372444152831996
2.98833333333333,3.9172172546387003
2.995,3.8986206054687997
3.00166666666667,3.8805007934569993
3.00833333333333,3.862380981445302
3.015,3.8456916809081996
3.02166666666667,3.8299560546875
3.02833333333333,3.814697265625
3.035,3.7989616394043004
3.04166666666667,3.7822723388672017
3.04833333333333,3.7660598754883026
3.055,3.7503242492675994
3.06166666666667,3.7341117858887003
3.06833333333333,3.716945648193402
3.075,3.7002563476562997
3.08166666666667,3.6849975585937997
3.08833333333333,3.671169281005902
3.095,3.6573410034180007
3.10166666666667,3.6435127258300994
3.10833333333333,3.6301612854004013
3.115,3.6177635192871023
3.12166666666667,3.6048889160156
3.12833333333333,3.591537475585902
3.135,3.5781860351562997
3.14166666666667,3.5657882690430007
3.14833333333333,3.5533905029297017
3.155,3.5424232482910014
3.16166666666667,3.5328865051269993
3.16833333333333,3.5252571105956996
3.175,3.5190582275391016
3.18166666666667,3.5142898559569993
3.18833333333333,3.5119056701660014
3.195,3.510475158691399
3.20166666666667,3.5099983215331996
3.20833333333333,3.511428833007802
3.215,3.5147666931152024
3.22166666666667,3.519535064697301
3.22833333333333,3.5271644592285014
3.235,3.5381317138672017
3.24166666666667,3.5519599914550994
3.24833333333333,3.569602966308601
3.255,3.5905838012694993
3.26166666666667,3.6149024963379013
3.26833333333333,3.6425590515137003
3.275,3.6730766296387003
3.28166666666667,3.7083625793456996
3.28833333333333,3.7479400634766016
3.295,3.793239593505902
3.30166666666667,3.8437843322754013
3.30833333333333,3.9005279541016016
3.315,3.9639472961425994
3.32166666666667,4.034042358398402
3.32833333333333,4.109382629394499
3.335,4.190444946289102
3.34166666666667,4.277229309081999
3.34833333333333,4.3702125549316015
3.355,4.468441009521502
3.36166666666667,4.572391510009801
3.36833333333333,4.681110382080099
3.375,4.7950744628906
3.38166666666667,4.913330078125
3.38833333333333,5.036354064941399
3.395,5.1646232604981
3.40166666666667,5.297183990478501
3.40833333333333,5.434513092041001
3.415,5.577564239501999
3.42166666666667,5.7263374328613
3.42833333333333,5.879878997802702
3.435,6.037235260009801
3.44166666666667,6.196975708007802
3.44833333333333,6.3591003417969
3.455,6.5226554870606
3.46166666666667,6.689071655273402
3.46833333333333,6.857872009277301
3.475,7.028579711914102
3.48166666666667,7.2026252746582
3.48833333333333,7.379531860351602
3.495,7.558822631835902
3.50166666666667,7.739067077636701
3.50833333333333,7.9197883605957
3.515,8.100509643554702
3.52166666666667,8.280277252197301
3.52833333333333,8.458614349365202
3.535,8.634567260742202
3.54166666666667,8.8047981262207
3.54833333333333,8.966922760009801
3.555,9.1171264648438
3.56166666666667,9.248733520507802
3.56833333333333,9.3545913696289
3.575,9.424686431884801
3.58166666666667,9.448051452636701
3.58833333333333,9.411811828613303
3.595,9.300708770752
3.60166666666667,9.099006652832
3.60833333333333,8.7881088256836
3.615,8.348941802978501
3.62166666666667,7.7629089355469
3.62833333333333,7.021427154541001
3.635,6.128787994384801
3.64166666666667,5.106925964355501
3.64833333333333,3.9958953857422017
3.655,2.8572082519531
3.66166666666667,1.7786026000977024
3.66833333333333,0.872611999511701
3.675,0.253200531005902
3.68166666666667,0.0
3.68833333333333,0.13446807861330257
3.695,0.6237030029297017
3.70166666666667,1.3847351074218999
3.70833333333333,2.301692962646502
3.715,3.2582283020019993
3.72166666666667,4.166603088378899
3.72833333333333,4.987716674804702
3.735,5.725383758544901
3.74166666666667,6.407737731933601
3.74833333333333,7.065773010253899
3.755,7.7171325683594
3.76166666666667,8.3661079406738
3.76833333333333,9.0103149414063
3.775,9.6445083618164
3.78166666666667,10.263442993164102
3.78833333333333,10.8633041381836
3.795,11.442184448242202
3.80166666666667,12.0015144348145
3.80833333333333,12.5460624694824
3.815,13.079166412353501
3.82166666666667,13.605117797851602
3.82833333333333,14.1263008117676
3.835,14.6484375
3.84166666666667,15.1710510253906
3.84833333333333,15.6855583190918
3.855,16.1724090576172
3.86166666666667,16.6120529174805
3.86833333333333,16.9854164123535
3.875,17.2815322875977
3.88166666666667,17.5056457519531
3.88833333333333,17.6734924316406
3.895,17.8122520446777
3.90166666666667,17.9462432861328
3.90833333333333,18.0959701538086
3.915,18.2700157165527
3.92166666666667,18.4659957885742
3.92833333333333,18.6777114868164
3.935,18.8999176025391
3.94166666666667,19.1259384155273
3.94833333333333,19.345760345459
3.955,19.5422172546387
3.96166666666667,19.6914672851563
3.96833333333333,19.761562347412102
3.975,19.7243690490723
3.98166666666667,19.5603370666504
3.98833333333333,19.2694664001465
3.995,18.8732147216797
