TITLE,gp33_3
DATA TYPE,CD SPECTRUM
ORIGIN,JASCO
OWNER,
DATE,2024/04/26
TIME,15:56:38
SPECTROMETER/DATA SYSTEM,JASCO Corp., J-1500, Rev. 1.00
DELTAX,-1
XUNITS,NANOMETERS
YUNITS,CD [mdeg]
Y2UNITS,HT [V]
FIRSTX,  260.0000
LASTX,  190.0000
NPOINTS,      71
FIRSTY,     0.11438
MAXY,    64.11684
MINY,   -37.41639
XYDATA
Channel 1
,25.01,34.99,45.01,55,65.01,75,95
260,0.114377,0.147848,0.0886721,0.114738,-0.0273361,0.0269714,0.119914
259,0.0955706,0.378218,-0.02804,0.354227,0.172562,-0.0823702,0.164292
258,0.36116,0.111871,0.0169712,0.165081,0.181796,0.123196,-0.0131299
257,0.358981,0.180019,0.0128348,0.27943,0.185015,0.336956,0.182854
256,0.298308,0.135616,0.145262,0.255496,0.0516471,0.217116,0.536528
255,0.371635,0.208294,0.320192,0.449093,0.268222,0.0992316,0.323374
254,0.0307997,0.114157,-0.038042,0.166688,0.283407,-0.0128881,0.18426
253,0.0509933,0.227023,-0.0899816,-0.000435462,0.218227,0.105865,-0.0929043
252,0.0108861,0.249316,-0.0141003,0.214702,0.0867246,0.00320061,0.002939
251,0.118332,0.21308,-0.0774835,0.303317,-0.119728,-0.36903,-0.0794278
250,0.00636649,-0.0872499,0.112409,0.232667,-0.149663,-0.379717,-0.283744
249,-0.151174,-0.0906333,0.0097117,-0.282135,-0.0223616,-0.462501,-0.509399
248,-0.278983,-0.0755755,-0.270411,-0.353482,-0.258485,-0.504329,-0.519069
247,-0.298498,-0.0803076,-0.353101,-0.561507,-0.477985,-0.873091,-0.556705
246,-0.696753,-0.514064,-0.673234,-0.471657,-0.779531,-1.02336,-1.17884
245,-0.831365,-0.43289,-0.462788,-0.772805,-1.1372,-1.31732,-1.64982
244,-0.72028,-0.812248,-0.841318,-1.19327,-1.52215,-1.67539,-2.07312
243,-1.11677,-1.40359,-1.594,-1.75371,-1.88032,-2.13358,-2.50287
242,-1.8224,-1.98173,-1.93179,-2.38642,-2.83649,-2.7874,-2.8826
241,-2.98137,-2.94739,-2.93879,-3.28895,-3.38794,-3.47141,-3.37893
240,-3.92123,-4.07953,-4.11684,-4.04623,-4.02291,-3.946,-4.22669
239,-5.01591,-5.53193,-5.36953,-5.22744,-5.17391,-4.84988,-5.17921
238,-6.77667,-7.21669,-6.7616,-6.76551,-6.14285,-5.98362,-6.19536
237,-9.23672,-9.47185,-9.17152,-8.51486,-7.59262,-7.27849,-7.05723
236,-12.0048,-11.682,-11.8148,-10.2048,-9.19333,-8.79555,-8.08374
235,-15.2408,-14.8017,-14.603,-12.7547,-10.6301,-10.2546,-9.32957
234,-17.8769,-17.8237,-17.372,-14.8182,-11.9063,-11.4989,-10.7549
233,-20.8554,-20.5283,-20.6572,-17.3772,-13.5062,-13.1056,-12.179
232,-24.0831,-23.7458,-23.1491,-19.4587,-15.4255,-14.6674,-13.4576
231,-26.5048,-26.4125,-25.3955,-21.378,-17.1055,-16.183,-14.7248
230,-29.1095,-28.6419,-27.8068,-23.55,-18.9247,-18.0699,-16.029
229,-31.1669,-30.5177,-30.0953,-25.277,-20.3392,-19.5376,-17.9062
228,-32.5187,-32.3305,-31.7147,-27.025,-22.0742,-21.5475,-19.1887
227,-33.9746,-33.5717,-32.8012,-28.4918,-23.6311,-23.114,-20.4853
226,-35.5672,-34.9313,-33.5936,-29.5169,-25.109,-24.0969,-21.6437
225,-36.7241,-35.5611,-34.018,-30.5269,-26.303,-25.2635,-23.0801
224,-37.219,-36.199,-34.6929,-31.3938,-27.8935,-26.2362,-24.029
223,-36.9176,-36.1003,-35.2692,-32.1143,-28.3087,-27.2097,-24.3056
222,-37.0277,-36.2467,-35.346,-32.3056,-28.852,-27.9009,-25.4234
221,-37.3728,-36.641,-35.352,-32.7542,-29.549,-28.6681,-26.0873
220,-37.2489,-36.9075,-35.8528,-32.6417,-29.4497,-28.9014,-26.4533
219,-37.1619,-37.1794,-36.1053,-32.6058,-29.9512,-29.4013,-27.0112
218,-37.4164,-37.2486,-35.8997,-33.2239,-29.7561,-29.769,-27.9329
217,-37.1427,-36.9088,-35.772,-32.907,-29.4962,-29.999,-27.8443
216,-36.9597,-36.1313,-35.9678,-32.7808,-30.0155,-29.5537,-27.5316
215,-36.6379,-35.5406,-36.1346,-32.5484,-30.0076,-29.7731,-27.6069
214,-36.4416,-35.2723,-35.7751,-32.9803,-30.0653,-30.2298,-29.6688
213,-36.2777,-35.1807,-35.0544,-32.973,-31.8131,-30.4396,-29.9151
212,-36.3554,-35.5082,-34.9346,-32.8873,-32.0782,-31.0556,-29.7012
211,-36.1839,-35.6404,-34.5741,-33.5834,-33.1094,-32.5268,-30.7638
210,-36.8209,-35.6267,-35.2945,-35.2475,-34.782,-33.8247,-32.1484
209,-36.2769,-35.0577,-34.7686,-35.9478,-35.0102,-35.1507,-32.9045
208,-35.7894,-33.5176,-34.9985,-36.2073,-35.5109,-37.0319,-32.7166
207,-31.8846,-32.5693,-32.0822,-32.1737,-35.6762,-36.29,-32.8486
206,-27.7569,-27.4111,-28.0119,-28.6718,-34.5083,-34.5222,-30.8924
205,-21.9768,-20.2235,-20.8858,-26.1425,-31.6307,-30.5682,-20.0622
204,-18.618,-14.8055,-12.7859,-20.0084,-21.9417,-27.9619,-15.5129
203,-9.71584,-4.09781,-6.35447,-12.4522,-22.8149,-23.092,-1.12596
202,-0.836442,4.16999,2.12095,-0.296058,-13.3951,-25.7108,17.7217
201,7.64331,13.6242,10.6697,9.86114,3.94642,-18.431,19.3552
200,23.0019,22.7814,10.7503,10.2103,11.8628,8.10181,37.5163
199,42.5312,29.2773,18.8752,45.3356,20.6021,50.3282,34.1153
198,61.1141,36.3359,53.4516,49.4525,37.5698,35.7774,1.08469
197,64.1168,17.468,11.3464,26.2996,42.8805,20.6919,10.7211
196,62.4767,3.339,26.9966,16.8877,25.2472,48.1812,20.8412
195,28.3269,28.6967,19.5153,10.5448,4.92293,37.8985,15.9529
194,27.7961,38.4358,12.8317,8.19685,49.7241,2.29004,31.1897
193,1.39328,53.1524,37.4737,3.17775,27.981,23.2164,33.204
192,8.80437,17.6337,17.6704,4.73132,44.3216,4.56624,11.9895
191,18.1375,-1.99274,12.6547,36.3106,18.3451,37.2886,28.9158
190,15.563,10.7259,-6.67617,32.2645,5.37048,44.9032,50.0929
Channel 2
,25.01,34.99,45.01,55,65.01,75,95
260,286.013,286.419,286.57,286.807,287.002,287.291,287.601
259,286.084,286.52,286.653,286.973,287.065,287.411,287.781
258,286.169,286.622,286.816,287.188,287.186,287.567,287.949
257,286.367,286.769,286.935,287.268,287.315,287.666,288.086
256,286.591,287.018,287.169,287.427,287.583,287.88,288.297
255,286.818,287.151,287.379,287.55,287.818,288.087,288.579
254,286.949,287.247,287.576,287.809,288.053,288.31,288.773
253,287.201,287.607,287.857,288.166,288.279,288.594,289.018
252,287.501,287.936,288.104,288.46,288.49,288.855,289.265
251,287.697,288.075,288.31,288.611,288.741,289.117,289.53
250,287.889,288.244,288.542,288.766,288.987,289.31,289.732
249,288.141,288.535,288.767,288.98,289.225,289.549,290.002
248,288.303,288.635,288.957,289.201,289.422,289.754,290.302
247,288.573,289.011,289.29,289.628,289.724,290.043,290.702
246,289.04,289.524,289.794,290.046,290.1,290.449,291.148
245,289.543,290,290.238,290.483,290.591,290.927,291.603
244,289.974,290.488,290.787,290.998,291.02,291.376,292.13
243,290.615,291.137,291.538,291.699,291.619,292.01,292.825
242,291.544,292.001,292.362,292.547,292.439,292.893,293.678
241,292.632,293.128,293.474,293.554,293.394,293.849,294.764
240,294.073,294.495,295.098,294.914,294.678,295.093,296.135
239,295.92,296.396,296.937,296.669,296.217,296.773,297.86
238,298.009,298.55,298.887,298.636,298.055,298.639,299.781
237,300.508,301.073,301.466,301.077,300.333,300.856,302.193
236,303.334,303.843,304.305,303.756,302.751,303.426,304.816
235,306.746,307.327,307.729,306.895,305.851,306.584,307.994
234,310.235,310.791,311.214,310.085,309.03,309.79,311.335
233,314.37,314.944,315.34,314.207,312.861,313.811,315.445
232,318.682,319.242,319.616,318.429,317.043,318.11,319.827
231,322.496,323.046,323.417,322.309,321.047,322.136,323.927
230,326.661,327.247,327.684,326.637,325.651,326.792,328.581
229,331.272,331.827,332.191,331.376,330.621,331.922,333.775
228,335.597,336.081,336.483,335.938,335.438,336.988,338.92
227,339.761,340.239,340.651,340.435,340.394,342.041,344.154
226,343.39,343.915,344.397,344.378,344.757,346.605,348.855
225,346.727,347.302,347.774,348.056,348.755,350.773,353.229
224,349.789,350.388,350.906,351.516,352.566,354.74,357.569
223,352.45,353.171,353.717,354.611,355.979,358.376,361.639
222,355.279,356.037,356.729,357.852,359.549,362.238,365.997
221,357.989,358.585,359.465,360.817,362.971,365.82,370.2
220,360.418,361.137,362.084,363.745,366.072,369.251,374.241
219,363.28,364.158,365.233,366.951,369.667,373.247,378.931
218,366.273,367.271,368.462,370.347,373.386,377.331,383.838
217,369.784,370.915,372.322,374.5,377.636,382.066,389.749
216,373.376,374.713,376.287,378.651,381.988,386.947,395.923
215,377.593,379.125,380.905,383.458,387.175,392.728,403.292
214,382.029,383.757,385.731,388.569,392.573,398.781,411.177
213,387.519,389.568,391.861,394.824,399.385,406.45,421.318
212,394.679,397.08,399.764,403.161,408.284,416.712,434.841
211,402.019,404.746,407.877,411.651,417.397,427.262,448.881
210,411.004,414.248,417.971,422.167,428.981,440.356,466.736
209,422.457,426.397,430.824,435.788,443.749,457.278,490.634
208,436.138,440.75,446.205,452.115,461.431,478.007,520.525
207,455.152,460.652,467.638,474.932,486.651,507.866,565.253
206,477.007,483.916,492.777,501.953,517.069,544.429,622.36
205,507.059,516.265,528.035,540.622,561.405,598.861,711.293
204,537.046,548.907,564.181,581.18,609.14,658.553,812.78
203,578.143,594.064,615.196,640.026,680.443,749.614,969.134
202,624.191,645.412,674.681,710.732,768.219,864.293,1077.03
201,688.151,719.032,761.758,817.452,904.194,1022.43,1096.16
200,761.721,805.906,868.627,950.428,1044.71,1094.44,1096.49
199,855.92,921.066,1005.88,1071.51,1096.18,1096.57,1096.7
198,972.924,1047.07,1090.47,1096.81,1096.7,1096.78,1096.82
197,1068.39,1095.53,1096.94,1097.1,1096.85,1096.93,1096.85
196,1096.18,1096.85,1097.26,1097.36,1096.99,1096.99,1096.83
195,1096.6,1097.03,1097.34,1097.43,1097.13,1096.97,1096.89
194,1096.69,1097.13,1097.47,1097.38,1097.18,1097,1096.87
193,1096.74,1097.22,1097.4,1097.46,1097.18,1097.04,1096.86
192,1096.85,1097.36,1097.53,1097.5,1097.2,1097.1,1096.91
191,1096.87,1097.37,1097.59,1097.49,1097.2,1097.12,1097.01
190,1096.88,1097.32,1097.6,1097.48,1097.21,1097.13,1096.99
