TITLE,no-pep_3
DATA TYPE,CD SPECTRUM
ORIGIN,JASCO
OWNER,
DATE,2024/04/26
TIME,15:56:38
SPECTROMETER/DATA SYSTEM,JASCO Corp., J-1500, Rev. 1.00
DELTAX,-1
XUNITS,NANOMETERS
YUNITS,CD [mdeg]
Y2UNITS,HT [V]
FIRSTX,  260.0000
LASTX,  190.0000
NPOINTS,      71
FIRSTY,     0.27288
MAXY,    49.81711
MINY,   -36.53829
XYDATA
Channel 1
,24.99,34.99,45,55.01,65,75.01,94.99
260,0.272876,0.449784,0.583018,0.251083,0.438808,0.288672,-0.0615626
259,0.167606,0.433399,0.288014,0.148662,0.327062,0.174034,-0.0415349
258,0.120173,0.394958,0.301096,0.0385004,-0.0805565,0.350725,0.0684052
257,0.178757,0.114574,0.419331,0.103327,-0.133792,0.20608,0.256771
256,0.53946,0.254056,0.336458,0.258358,0.111406,0.289034,0.105918
255,0.47964,0.500743,0.278417,0.374143,0.193124,0.283602,-0.226167
254,0.405841,0.263747,0.436738,0.192433,0.189594,-0.0743172,-0.116507
253,0.231777,0.290778,-0.0362651,0.279249,0.161482,0.0376833,0.150161
252,0.335441,0.272637,0.134136,0.153543,-0.061874,-0.029723,0.0792447
251,0.141811,0.240574,0.361434,-0.030326,-0.17311,-0.203748,-0.106691
250,0.0934953,0.25661,0.143763,-0.232339,-0.120885,-0.284883,-0.383121
249,0.130382,0.244315,0.0910474,-0.294107,0.100501,-0.435519,-0.441022
248,-0.292012,0.214031,-0.0185315,-0.242885,-0.426753,-0.575566,-0.678352
247,-0.0740479,-0.0414007,-0.0207835,-0.226778,-0.652486,-0.831146,-0.965312
246,-0.0610955,-0.125489,-0.295054,-0.697241,-0.878661,-0.870084,-1.04382
245,-0.606123,-0.495359,-0.726871,-1.19445,-1.12981,-1.42041,-1.47084
244,-0.646877,-0.840273,-1.0621,-1.45437,-1.49404,-1.6729,-1.92267
243,-0.924117,-1.37653,-1.34047,-1.58165,-1.9897,-2.1622,-2.54808
242,-1.66866,-1.47948,-1.99582,-2.17699,-2.68932,-2.62511,-2.8598
241,-2.22719,-2.08752,-2.53087,-2.82766,-3.63283,-3.31767,-3.52321
240,-2.95064,-2.97572,-3.15291,-3.79033,-4.12471,-4.39637,-4.26469
239,-4.23728,-4.11952,-4.30144,-4.57868,-5.10451,-5.44647,-5.28105
238,-5.48622,-5.1994,-5.10675,-5.5495,-6.28177,-6.45311,-6.20166
237,-7.13462,-6.70339,-6.33921,-7.29074,-7.24733,-7.92579,-7.20121
236,-8.92674,-8.29634,-7.77549,-8.66452,-8.40285,-9.24582,-8.40932
235,-11.0447,-10.3365,-9.5086,-10.2207,-9.97949,-10.6738,-9.61933
234,-13.402,-12.6538,-11.3984,-11.8335,-11.4279,-12.2588,-10.8119
233,-16.5723,-15.3454,-13.64,-13.1632,-13.311,-13.9491,-12.3785
232,-19.2057,-17.5495,-16.0939,-15.0552,-15.1611,-15.8819,-13.8719
231,-21.5903,-19.3558,-18.0741,-16.758,-16.6243,-17.2943,-15.6826
230,-24.3709,-21.6225,-20.3217,-18.6721,-18.7123,-19.0729,-17.3828
229,-26.4341,-24.5143,-22.2559,-20.5178,-20.5584,-21.2095,-18.6013
228,-28.3239,-26.6543,-24.5557,-22.145,-22.1978,-22.8736,-19.9925
227,-30.3611,-28.4753,-26.4387,-24.0896,-23.9735,-24.5053,-21.1275
226,-31.8793,-29.8974,-27.3021,-25.6332,-25.41,-26.3962,-22.3725
225,-32.6715,-31.4298,-28.7798,-26.3759,-26.9158,-28.0969,-24.0051
224,-33.5252,-32.2553,-30.1829,-27.287,-27.9479,-28.9116,-25.1166
223,-34.585,-33.0446,-30.9281,-28.5271,-28.1288,-29.3112,-26.0718
222,-35.4745,-33.7321,-31.657,-29.8791,-29.1191,-29.6846,-27.6019
221,-35.913,-34.0667,-32.1497,-30.612,-29.5269,-31.0919,-27.2643
220,-36.0595,-34.0653,-32.1315,-30.3725,-29.5211,-31.4233,-27.3189
219,-36.5383,-34.4012,-32.4499,-30.3869,-30.6524,-32.4872,-28.5966
218,-36.1863,-34.7254,-32.295,-30.5715,-31.1443,-32.9297,-28.7862
217,-35.6386,-34.9719,-32.1371,-30.5307,-31.3857,-33.2885,-29.5279
216,-35.727,-34.5576,-31.9771,-29.9564,-30.6748,-33.5473,-29.4458
215,-35.8511,-33.8331,-32.391,-30.5475,-30.9367,-34.4405,-29.5984
214,-35.3819,-33.2235,-32.5946,-30.9467,-31.6543,-34.2858,-30.2264
213,-35.2815,-33.4719,-32.3683,-30.9352,-32.0746,-34.3917,-30.8505
212,-34.8605,-33.7516,-32.835,-31.7751,-32.7692,-35.1732,-31.0666
211,-35.6265,-34.8582,-33.1149,-33.2854,-33.7394,-36.5182,-32.5959
210,-35.9398,-34.7849,-33.7256,-34.2943,-34.9395,-37.3189,-34.0997
209,-36.0946,-34.2036,-34.0166,-35.088,-37.2992,-36.6731,-34.1644
208,-34.7764,-32.7038,-32.7531,-34.9244,-38.3021,-39.3345,-33.2202
207,-31.5086,-31.3939,-31.0775,-34.0689,-38.2211,-39.4031,-33.8104
206,-27.6506,-27.1075,-27.8654,-32.3279,-35.2748,-36.5866,-35.1064
205,-22.9904,-23.464,-23.6963,-30.651,-33.1533,-33.0454,-28.9144
204,-17.7363,-17.6266,-20.5971,-26.6683,-29.3187,-29.5136,-23.8767
203,-7.73162,-10.7566,-13.6281,-19.5107,-24.8953,-16.0786,6.66418
202,-2.72215,-2.19173,-3.87665,-11.8164,-9.62404,-2.72046,11.4081
201,8.36042,8.22684,4.39359,-3.32193,1.20808,26.4783,27.8426
200,23.3349,22.2149,9.80253,5.66006,2.44318,37.4634,11.4988
199,24.3314,25.1245,41.1224,12.9582,48.6422,20.2376,26.3334
198,29.3657,50.0924,57.4619,-6.48423,35.9006,15.7131,30.7583
197,49.8171,40.8508,33.8965,13.5056,22.6765,19.977,18.9878
196,15.2713,22.4023,10.445,36.284,35.8586,5.53406,36.597
195,24.4038,13.4674,14.2975,33.1142,-1.24804,4.51446,27.3162
194,38.7212,20.1197,20.9643,11.793,22.5448,25.8598,14.0481
193,19.2366,-12.2569,33.4863,22.2261,17.9677,40.6014,0.205817
192,44.3011,-15.5699,9.84552,40.9731,0.805863,20.3279,33.0427
191,31.0851,11.4335,15.9785,15.8476,20.1101,19.4832,17.4849
190,31.6222,29.9539,37.8618,13.2808,34.9773,-3.49939,5.34942
Channel 2
,24.99,34.99,45,55.01,65,75.01,94.99
260,287.362,287.672,288.07,288.409,288.696,288.958,289.352
259,287.488,287.782,288.221,288.541,288.827,289.075,289.512
258,287.577,287.926,288.315,288.666,288.929,289.206,289.682
257,287.743,288.045,288.399,288.734,288.977,289.297,289.769
256,287.962,288.249,288.624,288.937,289.202,289.521,289.946
255,288.079,288.382,288.718,289.062,289.388,289.746,290.09
254,288.262,288.522,288.853,289.255,289.516,289.931,290.306
253,288.485,288.804,289.04,289.487,289.73,290.217,290.532
252,288.755,289.1,289.326,289.663,289.998,290.421,290.843
251,288.948,289.298,289.538,289.875,290.25,290.619,291.082
250,289.08,289.474,289.682,290.041,290.456,290.777,291.313
249,289.253,289.649,289.894,290.278,290.668,290.996,291.555
248,289.456,289.788,290.099,290.439,290.824,291.25,291.733
247,289.804,290.042,290.445,290.738,291.112,291.631,292.106
246,290.214,290.435,290.789,291.101,291.514,291.961,292.549
245,290.609,290.85,291.185,291.519,291.885,292.391,293.041
244,291.053,291.328,291.636,291.892,292.335,292.807,293.5
243,291.615,291.954,292.262,292.469,292.962,293.434,294.169
242,292.459,292.772,293.01,293.197,293.642,294.337,295.071
241,293.44,293.763,293.89,294.057,294.568,295.298,296.149
240,294.62,295.036,295.086,295.246,295.815,296.582,297.507
239,296.221,296.649,296.685,296.756,297.358,298.306,299.209
238,298.052,298.427,298.466,298.546,299.144,300.198,301.125
237,300.379,300.657,300.641,300.685,301.354,302.532,303.499
236,302.833,303.152,303.045,303.002,303.722,305.121,306.084
235,305.899,306.155,306.077,305.915,306.755,308.247,309.182
234,309.007,309.263,309.218,308.977,309.908,311.512,312.379
233,312.855,313.064,312.989,312.798,313.823,315.565,316.454
232,316.871,317.057,317.052,316.862,317.974,319.798,320.685
231,320.61,320.728,320.858,320.66,321.863,323.782,324.666
230,324.788,324.87,325.083,324.926,326.345,328.353,329.165
229,329.339,329.537,329.75,329.716,331.147,333.346,334.135
228,333.775,333.989,334.209,334.444,335.972,338.257,339.05
227,338.042,338.284,338.632,339.222,340.847,343.054,344.019
226,341.778,342.086,342.632,343.413,345.081,347.451,348.469
225,345.231,345.592,346.226,347.147,348.988,351.437,352.63
224,348.507,348.837,349.579,350.712,352.73,355.264,356.709
223,351.403,351.759,352.686,353.872,356.075,358.69,360.497
222,354.335,354.801,355.786,357.194,359.574,362.401,364.599
221,356.924,357.561,358.649,360.287,362.803,365.925,368.548
220,359.324,360.097,361.319,363.049,365.787,369.19,372.318
219,362.097,363.01,364.382,366.23,369.256,373.117,376.838
218,364.963,365.936,367.401,369.443,372.816,377.056,381.599
217,368.302,369.355,371.013,373.177,376.914,381.712,387.254
216,371.622,372.896,374.686,377.046,381.13,386.636,393.26
215,375.468,377.011,379.003,381.483,386.173,392.458,400.437
214,379.625,381.316,383.643,386.287,391.651,398.697,408.147
213,384.814,386.691,389.34,392.279,398.456,406.638,418.192
212,391.519,393.851,396.819,400.19,407.46,417.064,431.683
211,398.391,401.219,404.477,408.361,416.655,427.847,445.689
210,406.864,410.166,414.013,418.482,428.137,441.242,463.722
209,417.825,421.662,426.284,431.526,443.106,458.849,487.658
208,430.824,435.429,440.88,447.108,460.964,480.47,517.704
207,448.83,454.43,461.289,469.062,486.517,511.549,562.954
206,469.455,476.438,485.096,495.167,517.235,549.512,620.753
205,497.991,507.115,518.716,532.634,562.203,606.079,710.827
204,526.867,538.434,553.608,572.23,610.625,668.164,813.732
203,566.317,582.06,603.3,630.185,683.13,762.509,971.964
202,610.648,632.379,661.977,700.265,772.486,880.624,1078.61
201,673.271,705.24,749.261,806.963,910.416,1035.12,1096.24
200,746.322,792.509,857.692,942.276,1048.76,1095.56,1096.52
199,840.916,910.086,1000.5,1069.28,1096.31,1096.49,1096.69
198,962.826,1043.28,1090.15,1096.75,1096.8,1096.7,1096.75
197,1066.68,1095.67,1096.76,1097.1,1096.99,1096.75,1096.76
196,1096.34,1096.82,1097.04,1097.23,1097.11,1096.87,1096.85
195,1096.71,1097,1097.16,1097.35,1097.14,1096.95,1096.89
194,1096.87,1097.14,1097.28,1097.45,1097.21,1096.97,1096.85
193,1096.97,1097.13,1097.39,1097.44,1097.19,1097.03,1096.94
192,1097.03,1097.23,1097.4,1097.51,1097.27,1097.06,1096.93
191,1097.08,1097.33,1097.42,1097.46,1097.27,1097.01,1096.97
190,1097.13,1097.35,1097.4,1097.5,1097.3,1097.04,1097.03
